l [m],Ethane,Ethylene,Hydrogen,Propane,Propene,FLMOL [kgmol/hr],t [s],T [K]
0.01,0.7488702602537631,0.025724195849230153,0.03175692987125862,0.18761588000371984,0.006032734022028467,1.032798509848396,0.0006675683819636045,1244.3216041999824
0.02,0.7242996441655835,0.03807311188463095,0.047034054937231964,0.18163224595995256,0.008960943052601011,1.0493554414834145,0.0013289143285971261,1229.4286682133547
0.03,0.7077149144056996,0.04640366293847107,0.057351778319786634,0.1775815289547271,0.010948115381315557,1.0608411250355523,0.0019877116091525176,1218.999418230171
0.04,0.6951918599854734,0.05269144295247166,0.06514587132756867,0.17451639735938926,0.01245442837509701,1.069685600490508,0.002644952342618765,1210.9207353553672
0.05,0.6851494428369428,0.05773206866986341,0.0713981106164922,0.17205433593007277,0.01366604194662879,1.076887750749563,0.0033011080156845215,1204.3138999642372
0.060000000000000005,0.6767828471430893,0.061930412086219314,0.07660842596336413,0.1700003009301823,0.014678013877144833,1.0829641813044364,0.003956451482100122,1198.721033944639
0.07,0.6696245958831791,0.06552158066973247,0.08106727930886055,0.16824084549909982,0.015545698639128091,1.088218949530809,0.004611158796530391,1193.8711670563107
0.08,0.6633785828176394,0.0686544610299895,0.08495869519046396,0.1667040268014327,0.016304234160474485,1.0928468417151378,0.005265351845623496,1189.5899676714444
0.09,0.6578452896752242,0.07142935411685761,0.08840669525989787,0.16534131980498012,0.01697734114304028,1.0969804130857488,0.005919119319858289,1185.7583878571877
0.09999999999999999,0.6528838715854933,0.07391705241548333,0.09149884499877917,0.16411843841694826,0.017581792583295855,1.1007140656839962,0.006572528200952795,1182.2913978296106
0.10999999999999999,0.6483912120318126,0.07616937690404431,0.09429926383017889,0.1630102603078296,0.018129886926134584,1.104117464041122,0.007225630561587898,1179.1260923151299
0.11999999999999998,0.6442895670658708,0.07822539199700641,0.09685630117140348,0.16199783059132222,0.018630909174397064,1.107243510968442,0.007878467834778274,1176.2145969905255
0.12999999999999998,0.640518887037173,0.08011526716140974,0.09920730725177156,0.16106649845928386,0.019092040090361806,1.110133339280429,0.008531073622065278,1173.5196166605524
0.13999999999999999,0.6370318385277962,0.08186278020101999,0.10138172658897993,0.16020470829424407,0.019518946387959934,1.1128195693196292,0.009183475611556257,1171.011523042944
0.15,0.6337904611807447,0.08348699821204557,0.10340317575901224,0.15940318730123085,0.01991617754696667,1.115328509942636,0.009835696929517948,1168.6663828759597
0.16,0.6307638546032235,0.0850034404848172,0.10529088113994914,0.15865438311687816,0.02028744065513195,1.1176816899710382,0.01048775711820413,1166.4645832327137
0.17,0.627926536566168,0.08642490382741833,0.1070606995080171,0.15795206441779774,0.02063579568059876,1.1198969509450754,0.011139672859374367,1164.3898489190408
0.18000000000000002,0.6252572515759098,0.0877620614311091,0.1087258587412265,0.15729103094163724,0.020963797310117393,1.1219892440587018,0.01179145852016913,1162.428524733676
0.19000000000000003,0.6227380893289923,0.08902390593354391,0.11029750592182982,0.15666689882734805,0.021273599988285898,1.1239712225782958,0.012443126572029005,1160.5690411437336
0.20000000000000004,0.6203538211676238,0.09021808288598532,0.11178511993298877,0.1560759389663987,0.02156703704700344,1.1258536897339022,0.013094687917048828,1158.8015097715058
0.21000000000000005,0.6180913929395387,0.0913511455975823,0.1131968268285988,0.15551495340326363,0.02184568123101649,1.1276459424742273,0.013746152145636962,1157.1174125444222
0.22000000000000006,0.6159395320539877,0.0924287525790094,0.11453964420875404,0.15498117952850446,0.022110891629744642,1.1293560388781063,0.014397527742384689,1155.5093595993833
0.23000000000000007,0.6138884392386098,0.0934558224145019,0.11581967293361044,0.15447221489416924,0.022363850519108545,1.1309910087209103,0.015048822252335005,1153.9708984430247
0.24000000000000007,0.6119295440193471,0.09443665660833281,0.11704224921540027,0.15398595754985236,0.022605592607067463,1.1325570211161249,0.015700042416582852,1152.4963618600136
0.25000000000000006,0.6100553087635946,0.09537503802636742,0.11821206651254756,0.15352055821131022,0.022837028486180144,1.1340595193279877,0.01635119428384815,1151.0807454872756
0.26000000000000006,0.6082590701713362,0.09627431051981479,0.11933327413606136,0.15307438155654102,0.023058963616246573,1.1355033301831572,0.017002283303025577,1149.7196083647652
0.2700000000000001,0.6065349099559131,0.09713744388198679,0.12040955770262525,0.15264597463883636,0.023272113820638454,1.1368927536185263,0.01765331440052716,1148.4089914711176
0.2800000000000001,0.6048775485037864,0.09796708725946213,0.12144420529593937,0.15223404090433473,0.023477118036477257,1.1382316365426142,0.01830429204536016,1147.1453504745966
0.2900000000000001,0.6032822567901607,0.09876561339130306,0.12244016227317042,0.15183741866349842,0.023674548881867385,1.1395234341971834,0.01895522030423245,1145.9254998211616
0.3000000000000001,0.6017447829213322,0.09953515550006928,0.12340007697324824,0.15145506313217125,0.023864921473178993,1.140771261474868,0.019606102888487742,1144.746565939651
0.3100000000000001,0.6002612904884546,0.10027763824932223,0.12432633907777915,0.15108603135598714,0.024048700828456965,1.141977936103324,0.020256943194300308,1143.6059478355653
0.3200000000000001,0.5988283065292619,0.10099480387479709,0.12522111199492636,0.15072946948088534,0.024226308120129315,1.1431460151953277,0.020907744337272334,1142.5012837157822
0.3300000000000001,0.5974426773588453,0.10168823436294924,0.1260863603477572,0.1503846019456405,0.02439812598480802,1.1442778263512747,0.02155850918235489,1141.430422569104
0.34000000000000014,0.5961015308865452,0.10235937037168906,0.12692387342720718,0.15005072225904023,0.024564503055518216,1.1453754942600927,0.022209240369839754,1140.391399844795
0.35000000000000014,0.5948022443111454,0.10300952744986902,0.12773528529873202,0.1497271850913904,0.024725757848863085,1.1464409635582684,0.022859940338032212,1139.3824165397239
0.36000000000000015,0.5935424163008869,0.1036399100043774,0.1285220921184196,0.14941339946227367,0.024882182114042282,1.1474760185611994,0.023510611343106367,1138.4018211363934
0.37000000000000016,0.5923198429330966,0.10425162337914835,0.129285667109694,0.1491088228475154,0.025034043730545696,1.1484823003665672,0.024161255476557255,1137.4480939378147
0.38000000000000017,0.5911324968012399,0.10484568434355629,0.13002727356900487,0.1488129560607503,0.025181589225448615,1.1494613217387086,0.024811874680594148,1136.5198334273946
0.3900000000000002,0.589978508803094,0.10542303023446861,0.13074807620304693,0.14852533879081217,0.02532504596857835,1.1504144801105873,0.02546247076176269,1135.6157443476213
0.4000000000000002,0.5888561522085325,0.10598452695362406,0.1314491510473045,0.14824554569685855,0.02546462409368047,1.1513430689818638,0.02611304540303722,1134.734627244046
0.4100000000000002,0.5877638286737491,0.10653097598767781,0.13213149417321637,0.14797318297981799,0.02560051818553861,1.152248287944658,0.02676360017458687,1133.8753692636324
0.4200000000000002,0.5867000559241113,0.10706312059043833,0.13279602935681306,0.14770788536226254,0.02573290876637475,1.153131251530503,0.02741413654338777,1133.036936031155
0.4300000000000002,0.5856634568729443,0.1075816512441616,0.1334436148536178,0.14744931341982015,0.025861963609456192,1.1539929970408975,0.02806465588182794,1132.218364455574
0.4400000000000002,0.5846527499804831,0.10808721049821529,0.1340750494016271,0.14719715121626267,0.02598783890341179,1.154834491498343,0.028715159475430026,1131.41875634152
0.45000000000000023,0.5836667406876203,0.10858039726815855,0.13469107755527654,0.14695110420182655,0.026110680287117993,1.1556566378337334,0.02936564852979905,1130.6372727001544
0.46000000000000024,0.582704313784199,0.10906177066566532,0.13529239443766994,0.1467108973404613,0.02623062377200461,1.1564602804085289,0.030016124176887402,1129.8731286695195
0.47000000000000025,0.5817644265924617,0.10953185341924179,0.13587964998537055,0.14647627343679706,0.026347796566128723,1.1572462099556733,0.030666587480656645,1129.1255889676956
0.48000000000000026,0.5808461028636575,0.1099911349369549,0.13645345274923462,0.1462469916378733,0.026462317812279684,1.1580151680110988,0.031317039442204944,1128.3939638131014
0.49000000000000027,0.5799484273003599,0.11044007405507526,0.13701437330570612,0.1460228260882279,0.026574299250630803,1.1587678508975234,0.03196748100441999,1127.6776052555242
0.5000000000000002,0.5790705406292982,0.11087910151039634,0.13756294732538193,0.14580356471993797,0.02668384581498553,1.1595049133136925,0.032617913056209445,1126.9759038692619
0.5100000000000002,0.5782116351598062,0.111308622168807,0.13809967833923367,0.14558900816172665,0.02679105617042657,1.1602269715750118,0.03326833643635441,1126.2882857663367
0.5200000000000002,0.5773709507717389,0.11172901703831048,0.1386250402374383,0.14537896875338457,0.02689602319912771,1.1609346065453887,0.03391875193702578,1125.6142098933303
0.5300000000000002,0.576547771284119,0.11214064509095734,0.1391394795311545,0.14517326965357194,0.026998834440197066,1.161628366294897,0.03456916030699838,1124.953165580138
0.5400000000000003,0.575741421162096,0.11254384491498627,0.1396434174036471,0.14497174403060978,0.02709957248866072,1.162308768513441,0.03521956225459379,1124.3046703130008
0.5500000000000003,0.5749512625252041,0.11293893621575478,0.14013725157380147,0.14477423432719305,0.02719831535804658,1.1629763027067903,0.03586995845037894,1123.668267707648
0.5600000000000003,0.574176692424534,0.11332622118171601,0.14062135799218772,0.14458059159109077,0.0272951368104716,1.163631432198089,0.03652034952964451,1123.043525661363
0.5700000000000003,0.573417140360415,0.11370598572969998,0.14109609238735651,0.1443906748648722,0.027390106657656406,1.164274595955138,0.03717073609468445,1122.4300346653604
0.5800000000000003,0.5726720660156375,0.11407850064203319,0.14156179167791189,0.14420435062853898,0.027483291035878547,1.1649062102613184,0.037821118716895585,1121.8274062610833
0.5900000000000003,0.5719409571822098,0.11444402260654181,0.14201877526406056,0.14402149228966912,0.027574752657518645,1.1655266702459248,0.038471497938714024,1121.235271625944
0.6000000000000003,0.5712233278622193,0.11480279516919191,0.14246734621073606,0.14384197971630863,0.02766455104154402,1.1661363512878509,0.039121874275403534,1120.6532802757115
0.6100000000000003,0.5705187165255963,0.11515504960799965,0.14290779233300524,0.1436656988083934,0.027752742725005452,1.1667356103049873,0.039772248216709195,1120.0810988721921
0.6200000000000003,0.5698266845095302,0.11550100573586611,0.1433403871932546,0.1434925411039606,0.027839381457388363,1.1673247869403072,0.040422620228388426,1119.518410126126
0.6300000000000003,0.5691468145459837,0.11584087263914011,0.14376539101859534,0.14332240341682573,0.027924518379455116,1.1679042046544017,0.0410729907536301,1118.9649117863196
0.6400000000000003,0.5684787094052337,0.11617484935796533,0.14418305154600133,0.14315518750276368,0.02800820218803592,1.1684741717331757,0.04172336021437148,1118.420315707018
0.6500000000000004,0.5678219906446783,0.11650312551381477,0.1445936048018839,0.142990799751554,0.028090479288069084,1.1690349822184758,0.04237372901252169,1117.8843469863618
0.6600000000000004,0.567176297453286,0.11682588188903995,0.14499727582209287,0.14282915090252846,0.028171393933052836,1.1695869167686095,0.043024097531099544,1117.3567431695324
0.6700000000000004,0.5665412855830769,0.11714329096275736,0.14539427931770732,0.1426701557815085,0.028250988354949862,1.1701302434549927,0.04367446613529284,1116.837253510847
0.6800000000000004,0.5659166263599128,0.11745551740694715,0.14578482029142545,0.14251373305723655,0.028329302884478203,1.1706652185005213,0.0443248351734456,1116.3256382896511
0.6900000000000004,0.5653020057666575,0.11776271854624494,0.1461690946088722,0.1423598050155982,0.02840637606262716,1.1711920869647074,0.04497520497797893,1115.8216681753745
0.7000000000000004,0.5646971235924708,0.11806504478455927,0.1465472895287127,0.1422082973501039,0.02848224474415335,1.1717110833801068,0.04562557586625092,1115.3251236375718
0.7100000000000004,0.5641016926426078,0.11836264000133492,0.14691958419507187,0.14205913896724853,0.028556944193736864,1.172222432344137,0.04627594814136024,1114.835794397183
0.7200000000000004,0.5635154380036534,0.1186556419200096,0.14728615009542154,0.14191226180550362,0.02863050817541186,1.172726349069977,0.0469263220928979,1114.3534789156079
0.7300000000000004,0.5629380963596035,0.11894418245096422,0.14764715148679078,0.14176760066681512,0.02870296903582648,1.1732230398998935,0.047576697997651025,1113.8779839185106
0.7400000000000004,0.562369415354643,0.11922838801104972,0.14800274579288436,0.14162509305958831,0.02877435778183457,1.173712702784024,0.04822707612026237,1113.4091239515653
0.7500000000000004,0.5618091529988612,0.11950837982157739,0.14835308397445213,0.14148467905223466,0.028844704152874715,1.1741955277273648,0.04887745671384876,1112.9467209656061
0.7600000000000005,0.5612570771134869,0.11978427418648524,0.14869831087503513,0.14134630113644286,0.028914036688549884,1.1746716972074613,0.049527840020581554,1112.4906039288792
0.7700000000000005,0.5607129648125467,0.1200561827522371,0.14903856554402065,0.14120990409941211,0.028982382791783532,1.1751413865650706,0.0501782262722319,1112.0406084643023
0.7800000000000005,0.5601766020181199,0.12032421275086948,0.1493739815387635,0.14107543490435306,0.02904976878789399,1.1756047643698682,0.050828615690683206,1111.5965765098217
0.7900000000000005,0.5596477830066229,0.12058846722747685,0.14970468720737565,0.14094284257862588,0.02911621997989877,1.1760619927630809,0.051479008488413254,1111.158356000127
0.8000000000000005,0.5591263099837745,0.12084904525331072,0.15003080595364363,0.14081207810893814,0.029181760700332883,1.176513227778773,0.05212940486894805,1110.725800568133
0.8100000000000005,0.5586119926861058,0.12110604212556761,0.15035245648540857,0.1406830943430771,0.02924641435984093,1.176958619645356,0.05277980502728935,1110.2987692647744
0.8200000000000005,0.5581046480070514,0.12135954955484701,0.15066975304762711,0.1405558458976942,0.029310203492780084,1.1773983130687649,0.05343020915031767,1109.8771262957846
0.8300000000000005,0.5576040996458372,0.12160965584117875,0.15098280564123023,0.1404302890717022,0.02937314980005147,1.1778324474986197,0.054080617417172454,1109.460740774238
0.8400000000000005,0.5571101777775171,0.12185644603944232,0.1512917202288011,0.14030638176488075,0.029435274189358807,1.1782611573785855,0.05473102999961092,1109.049486487738
0.8500000000000005,0.5566227187426575,0.12210000211493405,0.15159659892801117,0.1401840834013204,0.02949659681307714,1.1786845723820347,0.05538144706234697,1108.6432416792236
0.8600000000000005,0.5561415647552854,0.1223404030897752,0.15189754019367452,0.14006335485736549,0.029557137103899345,1.1791028176340432,0.056031868763371497,1108.241888840451
0.8700000000000006,0.5556665636278322,0.12257772518079803,0.15219463898921257,0.13994415839374263,0.029616913808414552,1.1795160139206495,0.056682295254255305,1107.8453145172823
0.8800000000000006,0.555197568511899,0.12281204192949612,0.15248798694825647,0.13982645759158804,0.029675945018760377,1.1799242778862509,0.05733272668043572,1107.4534091259784
0.8900000000000006,0.5547344376537746,0.1230434243245789,0.1527776725270585,0.13971021729210842,0.02973424820247962,1.1803277222199258,0.05798316318148793,1107.0660667797642
0.9000000000000006,0.5542770341637084,0.123271940917628,0.1530637811483299,0.13959540353963182,0.029791840230701937,1.1807264558314257,0.05863360489138203,1106.6831851249794
0.9100000000000006,0.5538252257980256,0.12349765793231407,0.15334639533707575,0.13948198352782287,0.029848737404761672,1.1811205840175076,0.05928405193872666,1106.3046651861914
0.9200000000000006,0.5533788847532394,0.12372063936759861,0.15362559484895302,0.13936992554885472,0.029904955481354387,1.1815102086192428,0.059934504447000055,1105.930411219686
0.9300000000000006,0.5529378874713776,0.1239409470953117,0.15390145679163883,0.13925919894534483,0.029960509696327093,1.181895428170877,0.06058496253476922,1105.560330574801
0.9400000000000006,0.552502114455804,0.12415864095246901,0.15417405573965906,0.13914977406487783,0.03001541478719003,1.1822763380407806,0.06123542631589806,1105.1943335626022
0.9500000000000006,0.5520714500968623,0.12437377882866285,0.1544434638430941,0.13904162221694966,0.03006968501443123,1.1826530305649912,0.061885895899745,1104.8323333314436
0.9600000000000006,0.5516457825067239,0.12458641674883841,0.15470975093054756,0.138934715632181,0.03012333418170916,1.1830255951738033,0.0625363713913508,1104.4742457489813
0.9700000000000006,0.551225003362867,0.12479660895174366,0.15497298460673722,0.13882902742365869,0.030176375654993558,1.1833941185118402,0.06318685289161713,1104.1199892902446
0.9800000000000006,0.550809007759649,0.12500440796432002,0.15523323034503905,0.13872453155027284,0.030228822380719035,1.183758684552003,0.06383734049747632,1103.7694849313975
0.9900000000000007,0.5503976940674817,0.12520986467228276,0.15549055157529476,0.13862120278192874,0.03028068690301198,1.184119374703668,0.06448783430205303,1103.4226560488435
1.0000000000000007,0.549990963799144,0.12541302838712165,0.15574500976716824,0.13851901666651945,0.030331981380046582,1.184476267915476,0.06513833439481807,1103.0794283233586
1.0100000000000007,0.5495887214828078,0.125613946909737,0.15599666450931923,0.13841794949855363,0.030382717599582207,1.184829440773037,0.0657888408617349,1102.7397296489523
1.0200000000000007,0.5491908745413755,0.12581266659091123,0.15624557358464192,0.13831797828934062,0.03043290699373068,1.1851789675918423,0.06643935378539928,1102.403490046182
1.0300000000000007,0.5487973331777588,0.1260092323888015,0.15649179304180005,0.13821908073864114,0.030482560652998536,1.185524920505671,0.06708987324517228,1102.0706415796608
1.0400000000000007,0.5484080102657525,0.12620368792362807,0.15673537726327466,0.1381212352076982,0.030531689339646555,1.1858673695507442,0.06774039931730727,1101.7411182795188
1.0500000000000007,0.5480228212461802,0.12639607552971974,0.1569763790301255,0.1380244206935688,0.03058030350040578,1.186206382745871,0.06839093207507096,1101.414856066593
1.0600000000000007,0.5476416840280093,0.12658643630506744,0.15721484958365425,0.13792861680468196,0.030628413278586824,1.1865420261688158,0.06904147158885893,1101.0917926811358
1.0700000000000007,0.5472645188941566,0.12677481015852796,0.15745083868414472,0.13783380373755397,0.030676028525616784,1.1868743640290922,0.06969201792630597,1100.7718676148436
1.0800000000000007,0.546891248411716,0.12696123585480884,0.1576843946668444,0.13773996225459526,0.030723158812035575,1.18720345873739,0.07034257115239148,1100.4550220460262
1.0900000000000007,0.5465217973463686,0.1271457510573588,0.1579155644953409,0.1376470736629494,0.030769813437982112,1.1875293709718118,0.07099313132954009,1100.1411987777399
1.1000000000000008,0.5461560925807402,0.12732839236927873,0.15814439381247672,0.13755511979430635,0.03081600144319802,1.1878521597410985,0.07164369851771794,1099.8303421787264
1.1100000000000008,0.54579406303649,0.12750919537236116,0.15837092698893646,0.1374640829856371,0.03086173161657533,1.1881718824450065,0.0722942727745247,1099.5223981270049
1.1200000000000008,0.5454356395999331,0.12768819466436057,0.15859520716963338,0.13737394606080022,0.03090701250527282,1.188488594931986,0.07294485415528155,1099.2173139559777
1.1300000000000008,0.5450807550510017,0.12786542389458846,0.1588172763180125,0.1372846923129731,0.030951852423424058,1.1888023515543045,0.07359544271311544,1098.9150384029135
1.1400000000000008,0.5447293439953714,0.1280409157979232,0.15903717525838204,0.13719630548786446,0.030996259460458826,1.18911320522075,0.07424603849903966,1098.6155215596862
