l [m],Ethane,Ethylene,Hydrogen,Propane,Propene,FLMOL [kgmol/hr],t [s],T [K]
0.01,0.7488702602537631,0.025724195849230153,0.03175692987125862,0.18761588000371984,0.006032734022028467,1.032798509848396,0.0006675683819636045,1244.3216041999824
0.02,0.7242996441655835,0.03807311188463095,0.047034054937231964,0.18163224595995256,0.008960943052601011,1.0493554414834145,0.0013289143285971261,1229.4286682133547
0.03,0.7077149144056996,0.04640366293847107,0.057351778319786634,0.1775815289547271,0.010948115381315557,1.0608411250355523,0.0019877116091525176,1218.999418230171
0.04,0.6951918599854734,0.05269144295247166,0.06514587132756867,0.17451639735938926,0.01245442837509701,1.069685600490508,0.002644952342618765,1210.9207353553672
0.05,0.6851494428369428,0.05773206866986341,0.0713981106164922,0.17205433593007277,0.01366604194662879,1.076887750749563,0.0033011080156845215,1204.3138999642372
0.060000000000000005,0.6767828471430893,0.061930412086219314,0.07660842596336413,0.1700003009301823,0.014678013877144833,1.0829641813044364,0.003956451482100122,1198.721033944639
0.07,0.6696245958831791,0.06552158066973247,0.08106727930886055,0.16824084549909982,0.015545698639128091,1.088218949530809,0.004611158796530391,1193.8711670563107
0.08,0.6633785828176394,0.0686544610299895,0.08495869519046396,0.1667040268014327,0.016304234160474485,1.0928468417151378,0.005265351845623496,1189.5899676714444
0.09,0.6578452896752242,0.07142935411685761,0.08840669525989787,0.16534131980498012,0.01697734114304028,1.0969804130857488,0.005919119319858289,1185.7583878571877
0.09999999999999999,0.6528838715854933,0.07391705241548333,0.09149884499877917,0.16411843841694826,0.017581792583295855,1.1007140656839962,0.006572528200952795,1182.2913978296106
0.10999999999999999,0.6483912120318126,0.07616937690404431,0.09429926383017889,0.1630102603078296,0.018129886926134584,1.104117464041122,0.007225630561587898,1179.1260923151299
0.11999999999999998,0.6442895670658708,0.07822539199700641,0.09685630117140348,0.16199783059132222,0.018630909174397064,1.107243510968442,0.007878467834778274,1176.2145969905255
0.12999999999999998,0.640518887037173,0.08011526716140974,0.09920730725177156,0.16106649845928386,0.019092040090361806,1.110133339280429,0.008531073622065278,1173.5196166605524
0.13999999999999999,0.6370318385277962,0.08186278020101999,0.10138172658897993,0.16020470829424407,0.019518946387959934,1.1128195693196292,0.009183475611556257,1171.011523042944
0.15,0.6337904611807447,0.08348699821204557,0.10340317575901224,0.15940318730123085,0.01991617754696667,1.115328509942636,0.009835696929517948,1168.6663828759597
0.16,0.6307638546032235,0.0850034404848172,0.10529088113994914,0.15865438311687816,0.02028744065513195,1.1176816899710382,0.01048775711820413,1166.4645832327137
0.17,0.627926536566168,0.08642490382741833,0.1070606995080171,0.15795206441779774,0.02063579568059876,1.1198969509450754,0.011139672859374367,1164.3898489190408
0.18000000000000002,0.6252572515759098,0.0877620614311091,0.1087258587412265,0.15729103094163724,0.020963797310117393,1.1219892440587018,0.01179145852016913,1162.428524733676
0.19000000000000003,0.6227380893289923,0.08902390593354391,0.11029750592182982,0.15666689882734805,0.021273599988285898,1.1239712225782958,0.012443126572029005,1160.5690411437336
0.20000000000000004,0.6203538211676238,0.09021808288598532,0.11178511993298877,0.1560759389663987,0.02156703704700344,1.1258536897339022,0.013094687917048828,1158.8015097715058
0.21000000000000005,0.6180913929395387,0.09135114559758228,0.1131968268285988,0.1555149534032636,0.02184568123101649,1.1276459424742273,0.013746152145636962,1157.1174125444222
0.22000000000000006,0.6159395320539877,0.09242875257900937,0.11453964420875404,0.15498117952850443,0.022110891629744642,1.1293560388781063,0.014397527742384689,1155.5093595993833
0.23000000000000007,0.6138884392386098,0.09345582241450187,0.11581967293361044,0.1544722148941692,0.022363850519108545,1.1309910087209103,0.015048822252335005,1153.9708984430247
0.24000000000000007,0.6119295440193472,0.09443665660833281,0.1170422492154003,0.15398595754985236,0.022605592607067466,1.1325570211161249,0.015700042416582852,1152.4963618600136
0.25000000000000006,0.6100553087635946,0.09537503802636742,0.11821206651254756,0.15352055821131022,0.022837028486180144,1.1340595193279879,0.01635119428384815,1151.0807454872756
0.26000000000000006,0.6082590701713362,0.09627431051981478,0.11933327413606136,0.15307438155654102,0.02305896361624657,1.1355033301831572,0.017002283303025577,1149.7196083647652
0.2700000000000001,0.6065349099559131,0.09713744388198679,0.12040955770262525,0.15264597463883636,0.02327211382063845,1.1368927536185263,0.01765331440052716,1148.4089914711176
0.2800000000000001,0.6048775485037865,0.09796708725946211,0.1214442052959394,0.15223404090433473,0.023477118036477257,1.1382316365426142,0.01830429204536016,1147.1453504745966
0.2900000000000001,0.6032822567901608,0.09876561339130305,0.12244016227317045,0.1518374186634984,0.023674548881867385,1.1395234341971834,0.01895522030423245,1145.9254998211616
0.3000000000000001,0.6017447829213324,0.09953515550006928,0.12340007697324828,0.15145506313217122,0.023864921473178997,1.1407712614748682,0.019606102888487742,1144.746565939651
0.3100000000000001,0.6002612904884547,0.10027763824932219,0.12432633907777918,0.15108603135598705,0.024048700828456962,1.1419779361033244,0.020256943194300308,1143.6059478355653
0.3200000000000001,0.5988283065292619,0.10099480387479705,0.12522111199492636,0.15072946948088525,0.02422630812012931,1.143146015195328,0.020907744337272334,1142.5012837157822
0.3300000000000001,0.5974426773588453,0.10168823436294921,0.1260863603477572,0.15038460194564043,0.02439812598480802,1.1442778263512752,0.02155850918235489,1141.430422569104
0.34000000000000014,0.5961015308865452,0.10235937037168902,0.12692387342720718,0.15005072225904018,0.024564503055518216,1.1453754942600929,0.022209240369839754,1140.391399844795
0.35000000000000014,0.5948022443111455,0.10300952744986899,0.12773528529873204,0.14972718509139038,0.024725757848863095,1.1464409635582684,0.022859940338032212,1139.3824165397239
0.36000000000000015,0.593542416300887,0.10363991000437738,0.12852209211841964,0.14941339946227367,0.024882182114042296,1.1474760185611994,0.023510611343106367,1138.4018211363934
0.37000000000000016,0.5923198429330965,0.1042516233791483,0.129285667109694,0.14910882284751537,0.025034043730545703,1.1484823003665672,0.024161255476557255,1137.4480939378147
0.38000000000000017,0.5911324968012399,0.10484568434355625,0.1300272735690049,0.1488129560607503,0.02518158922544863,1.1494613217387084,0.024811874680594148,1136.5198334273946
0.3900000000000002,0.589978508803094,0.10542303023446857,0.13074807620304696,0.14852533879081217,0.025325045968578364,1.1504144801105871,0.02546247076176269,1135.6157443476213
0.4000000000000002,0.5888561522085324,0.105984526953624,0.13144915104730448,0.14824554569685852,0.025464624093680478,1.1513430689818633,0.02611304540303722,1134.734627244046
0.4100000000000002,0.5877638286737491,0.10653097598767777,0.13213149417321637,0.14797318297981799,0.025600518185538622,1.1522482879446572,0.02676360017458687,1133.8753692636324
0.4200000000000002,0.5867000559241113,0.10706312059043831,0.13279602935681303,0.14770788536226254,0.025732908766374758,1.153131251530502,0.02741413654338777,1133.036936031155
0.4300000000000002,0.5856634568729443,0.1075816512441616,0.13344361485361778,0.14744931341982015,0.025861963609456202,1.1539929970408964,0.02806465588182794,1132.218364455574
0.4400000000000002,0.5846527499804832,0.10808721049821529,0.13407504940162707,0.1471971512162627,0.025987838903411803,1.1548344914983422,0.02871515947543003,1131.41875634152
0.45000000000000023,0.5836667406876203,0.10858039726815855,0.13469107755527654,0.14695110420182655,0.026110680287118004,1.1556566378337325,0.029365648529799053,1130.6372727001544
0.46000000000000024,0.5827043137841988,0.10906177066566529,0.1352923944376699,0.1467108973404613,0.02623062377200462,1.156460280408528,0.030016124176887406,1129.8731286695195
0.47000000000000025,0.5817644265924617,0.10953185341924178,0.13587964998537053,0.14647627343679706,0.026347796566128737,1.1572462099556724,0.03066658748065665,1129.1255889676956
0.48000000000000026,0.5808461028636576,0.1099911349369549,0.1364534527492346,0.1462469916378733,0.0264623178122797,1.1580151680110982,0.031317039442204944,1128.3939638131014
0.49000000000000027,0.5799484273003599,0.11044007405507526,0.1370143733057061,0.14602282608822786,0.02657429925063082,1.1587678508975228,0.03196748100441999,1127.6776052555242
0.5000000000000002,0.5790705406292982,0.11087910151039636,0.13756294732538193,0.14580356471993797,0.02668384581498555,1.1595049133136917,0.032617913056209445,1126.9759038692619
0.5100000000000002,0.5782116351598062,0.111308622168807,0.13809967833923364,0.1455890081617266,0.02679105617042658,1.160226971575011,0.03326833643635441,1126.2882857663367
0.5200000000000002,0.577370950771739,0.11172901703831052,0.13862504023743827,0.14537896875338452,0.026896023199127723,1.160934606545388,0.03391875193702578,1125.6142098933303
0.5300000000000002,0.5765477712841192,0.11214064509095738,0.1391394795311545,0.14517326965357188,0.026998834440197083,1.1616283662948963,0.03456916030699838,1124.953165580138
0.5400000000000003,0.5757414211620961,0.11254384491498631,0.1396434174036471,0.14497174403060972,0.02709957248866073,1.1623087685134406,0.03521956225459379,1124.3046703130008
0.5500000000000003,0.5749512625252042,0.11293893621575482,0.14013725157380144,0.144774234327193,0.027198315358046583,1.16297630270679,0.03586995845037894,1123.668267707648
0.5600000000000003,0.574176692424534,0.11332622118171604,0.14062135799218764,0.14458059159109068,0.027295136810471604,1.163631432198089,0.03652034952964451,1123.043525661363
0.5700000000000003,0.573417140360415,0.11370598572969999,0.1410960923873564,0.14439067486487212,0.027390106657656416,1.1642745959551377,0.03717073609468445,1122.4300346653604
0.5800000000000003,0.5726720660156376,0.11407850064203323,0.14156179167791177,0.1442043506285389,0.02748329103587856,1.164906210261318,0.037821118716895585,1121.8274062610833
0.5900000000000003,0.5719409571822099,0.11444402260654182,0.14201877526406048,0.14402149228966904,0.02757475265751866,1.1655266702459242,0.038471497938714024,1121.235271625944
0.6000000000000003,0.5712233278622195,0.11480279516919191,0.14246734621073595,0.14384197971630855,0.027664551041544024,1.16613635128785,0.039121874275403534,1120.6532802757115
0.6100000000000003,0.5705187165255965,0.11515504960799966,0.14290779233300513,0.14366569880839333,0.027752742725005455,1.1667356103049864,0.039772248216709195,1120.0810988721921
0.6200000000000003,0.5698266845095304,0.11550100573586611,0.14334038719325445,0.1434925411039605,0.027839381457388363,1.1673247869403063,0.040422620228388426,1119.518410126126
0.6300000000000003,0.569146814545984,0.11584087263914015,0.14376539101859523,0.14332240341682567,0.027924518379455116,1.1679042046544008,0.0410729907536301,1118.9649117863196
0.6400000000000003,0.5684787094052339,0.11617484935796535,0.1441830515460012,0.14315518750276363,0.02800820218803592,1.1684741717331752,0.04172336021437148,1118.420315707018
0.6500000000000004,0.5678219906446784,0.11650312551381474,0.14459360480188377,0.14299079975155393,0.02809047928806908,1.1690349822184753,0.04237372901252169,1117.8843469863618
0.6600000000000004,0.5671762974532862,0.11682588188903995,0.14499727582209274,0.1428291509025284,0.028171393933052832,1.1695869167686088,0.043024097531099544,1117.3567431695324
0.6700000000000004,0.5665412855830771,0.11714329096275736,0.14539427931770718,0.14267015578150846,0.028250988354949862,1.1701302434549916,0.04367446613529284,1116.837253510847
0.6800000000000004,0.565916626359913,0.11745551740694712,0.1457848202914253,0.14251373305723655,0.028329302884478203,1.1706652185005202,0.0443248351734456,1116.3256382896511
0.6900000000000004,0.5653020057666577,0.11776271854624494,0.14616909460887206,0.1423598050155982,0.028406376062627168,1.1711920869647063,0.04497520497797893,1115.8216681753745
0.7000000000000004,0.5646971235924709,0.11806504478455927,0.14654728952871257,0.1422082973501039,0.028482244744153357,1.1717110833801057,0.04562557586625092,1115.3251236375718
0.7100000000000004,0.5641016926426079,0.11836264000133494,0.14691958419507176,0.14205913896724853,0.028556944193736864,1.1722224323441361,0.04627594814136024,1114.835794397183
0.7200000000000004,0.5635154380036536,0.1186556419200096,0.14728615009542143,0.14191226180550365,0.028630508175411865,1.1727263490699762,0.0469263220928979,1114.3534789156079
0.7300000000000004,0.5629380963596036,0.11894418245096422,0.14764715148679064,0.14176760066681518,0.02870296903582648,1.1732230398998926,0.047576697997651025,1113.8779839185106
0.7400000000000004,0.562369415354643,0.11922838801104972,0.1480027457928842,0.14162509305958837,0.028774357781834563,1.173712702784023,0.04822707612026237,1113.4091239515653
0.7500000000000004,0.5618091529988614,0.11950837982157739,0.148353083974452,0.1414846790522347,0.028844704152874715,1.1741955277273637,0.04887745671384876,1112.9467209656061
0.7600000000000005,0.5612570771134872,0.11978427418648524,0.148698310875035,0.14134630113644292,0.028914036688549884,1.17467169720746,0.04952784002058156,1112.4906039288792
0.7700000000000005,0.5607129648125468,0.12005618275223708,0.14903856554402048,0.14120990409941217,0.028982382791783532,1.1751413865650695,0.05017822627223191,1112.0406084643023
0.7800000000000005,0.5601766020181201,0.12032421275086946,0.14937398153876336,0.14107543490435312,0.029049768787893997,1.175604764369867,0.05082861569068321,1111.5965765098217
0.7900000000000005,0.5596477830066231,0.1205884672274768,0.14970468720737548,0.1409428425786259,0.02911621997989877,1.17606199276308,0.05147900848841326,1111.158356000127
0.8000000000000005,0.5591263099837748,0.12084904525331068,0.15003080595364346,0.14081207810893817,0.02918176070033288,1.1765132277787722,0.05212940486894806,1110.725800568133
0.8100000000000005,0.558611992686106,0.12110604212556757,0.15035245648540838,0.14068309434307713,0.029246414359840923,1.176958619645355,0.05277980502728936,1110.2987692647744
0.8200000000000005,0.5581046480070517,0.121359549554847,0.15066975304762698,0.14055584589769424,0.029310203492780084,1.1773983130687637,0.05343020915031768,1109.8771262957846
0.8300000000000005,0.5576040996458376,0.12160965584117873,0.15098280564123007,0.14043028907170224,0.029373149800051467,1.1778324474986188,0.05408061741717247,1109.460740774238
0.8400000000000005,0.5571101777775173,0.12185644603944225,0.1512917202288009,0.14030638176488075,0.029435274189358793,1.1782611573785848,0.054731029999610936,1109.049486487738
0.8500000000000005,0.5566227187426575,0.12210000211493399,0.15159659892801097,0.14018408340132044,0.02949659681307713,1.178684572382034,0.05538144706234698,1108.6432416792236
0.8600000000000005,0.5561415647552856,0.12234040308977517,0.15189754019367435,0.14006335485736554,0.029557137103899338,1.1791028176340426,0.05603186876337151,1108.241888840451
0.8700000000000006,0.5556665636278324,0.12257772518079799,0.15219463898921237,0.1399441583937427,0.02961691380841455,1.1795160139206489,0.05668229525425532,1107.8453145172823
0.8800000000000006,0.5551975685118992,0.12281204192949606,0.15248798694825627,0.1398264575915881,0.029675945018760374,1.17992427788625,0.057332726680435736,1107.4534091259784
0.8900000000000006,0.5547344376537747,0.12304342432457885,0.1527776725270583,0.13971021729210847,0.029734248202479607,1.180327722219925,0.05798316318148795,1107.0660667797642
0.9000000000000006,0.5542770341637084,0.12327194091762794,0.1530637811483297,0.13959540353963185,0.029791840230701923,1.180726455831425,0.05863360489138204,1106.6831851249794
0.9100000000000006,0.5538252257980257,0.12349765793231407,0.15334639533707556,0.13948198352782296,0.02984873740476167,1.1811205840175067,0.05928405193872668,1106.3046651861914
0.9200000000000006,0.5533788847532393,0.1237206393675986,0.1536255948489528,0.1393699255488548,0.029904955481354377,1.181510208619242,0.05993450444700007,1105.930411219686
0.9300000000000006,0.5529378874713776,0.12394094709531171,0.15390145679163864,0.13925919894534497,0.029960509696327086,1.1818954281708756,0.060584962534769235,1105.560330574801
0.9400000000000006,0.5525021144558041,0.12415864095246901,0.1541740557396589,0.13914977406487797,0.030015414787190026,1.1822763380407795,0.061235426315898074,1105.1943335626022
0.9500000000000006,0.5520714500968623,0.12437377882866282,0.15444346384309393,0.1390416222169498,0.030069685014431226,1.18265303056499,0.06188589589974501,1104.8323333314436
0.9600000000000006,0.5516457825067239,0.12458641674883837,0.1547097509305474,0.13893471563218115,0.03012333418170915,1.1830255951738022,0.06253637139135082,1104.4742457489813
0.9700000000000006,0.551225003362867,0.12479660895174363,0.15497298460673706,0.13882902742365882,0.030176375654993554,1.183394118511839,0.06318685289161714,1104.1199892902446
0.9800000000000006,0.5508090077596491,0.12500440796432002,0.15523323034503894,0.13872453155027298,0.03022882238071904,1.1837586845520018,0.06383734049747633,1103.7694849313975
0.9900000000000007,0.5503976940674818,0.12520986467228276,0.15549055157529465,0.13862120278192888,0.030280686903011975,1.184119374703667,0.06448783430205304,1103.4226560488435
1.0000000000000007,0.549990963799144,0.12541302838712162,0.1557450097671681,0.13851901666651956,0.03033198138004656,1.1844762679154754,0.06513833439481809,1103.0794283233586
1.0100000000000007,0.5495887214828079,0.125613946909737,0.15599666450931912,0.13841794949855377,0.0303827175995822,1.1848294407730362,0.06578884086173492,1102.7397296489523
1.0200000000000007,0.5491908745413756,0.1258126665909112,0.15624557358464178,0.13831797828934075,0.030432906993730677,1.1851789675918416,0.0664393537853993,1102.403490046182
1.0300000000000007,0.5487973331777588,0.12600923238880146,0.15649179304179991,0.13821908073864128,0.030482560652998536,1.1855249205056702,0.0670898732451723,1102.0706415796608
1.0400000000000007,0.5484080102657527,0.12620368792362807,0.15673537726327455,0.13812123520769834,0.030531689339646558,1.1858673695507433,0.06774039931730728,1101.7411182795188
1.0500000000000007,0.5480228212461802,0.1263960755297197,0.1569763790301254,0.13802442069356888,0.03058030350040577,1.1862063827458706,0.06839093207507098,1101.414856066593
1.0600000000000007,0.5476416840280095,0.12658643630506744,0.1572148495836542,0.13792861680468207,0.030628413278586827,1.1865420261688153,0.06904147158885894,1101.0917926811358
1.0700000000000007,0.5472645188941566,0.12677481015852793,0.15745083868414464,0.13783380373755405,0.030676028525616773,1.186874364029092,0.06969201792630599,1100.7718676148436
1.0800000000000007,0.546891248411716,0.1269612358548088,0.15768439466684434,0.13773996225459534,0.030723158812035568,1.1872034587373899,0.0703425711523915,1100.4550220460262
1.0900000000000007,0.5465217973463687,0.12714575105735879,0.15791556449534086,0.13764707366294948,0.030769813437982102,1.187529370971811,0.0709931313295401,1100.1411987777399
1.1000000000000008,0.5461560925807402,0.12732839236927868,0.15814439381247666,0.1375551197943064,0.030816001443197998,1.1878521597410976,0.07164369851771796,1099.8303421787264
1.1100000000000008,0.5457940630364901,0.1275091953723611,0.15837092698893643,0.13746408298563717,0.03086173161657532,1.1881718824450054,0.07229427277452471,1099.5223981270049
1.1200000000000008,0.5454356395999331,0.1276881946643605,0.15859520716963332,0.13737394606080028,0.030907012505272807,1.188488594931985,0.07294485415528157,1099.2173139559777
1.1300000000000008,0.5450807550510018,0.1278654238945884,0.15881727631801248,0.1372846923129732,0.03095185242342405,1.1888023515543031,0.07359544271311545,1098.9150384029135
1.1400000000000008,0.5447293439953715,0.12804091579792315,0.15903717525838199,0.13719630548786452,0.030996259460458815,1.189113205220749,0.07424603849903967,1098.6155215596862
