l [m],Ethane,Ethylene,Hydrogen,Propane,Propene,FLMOL [kgmol/hr],t [s],T [K]
0.01,0.7480348475613416,0.02614711242948953,0.03227255001146123,0.1874200524157361,0.006125437581971706,1.0333488008548721,0.0006675683819636045,1242.9997887255715
0.02,0.724013513271426,0.03821988335072493,0.04720825422231113,0.18156997828395158,0.008988370871586214,1.0495472955464982,0.0013292651553301195,1228.2073252262528
0.03,0.7077945776689227,0.04636653554735318,0.057298608479655164,0.177608205371767,0.010932072932301988,1.0607812919287691,0.001988597107793101,1217.8962140961041
0.04,0.6955254153625443,0.052526693946485195,0.06493486336371312,0.17460485791002947,0.01240816941722792,1.069444213905037,0.002646470388681988,1209.9162746555326
0.05,0.68566897137951,0.05747385323129223,0.07107146923649725,0.17218809014749556,0.013597616005205022,1.0765090821121428,0.0033033191110213808,1203.3900078226413
0.060000000000000005,0.6774444160413744,0.06160082053413269,0.07619345428061618,0.17016867539739333,0.01459263374648347,1.0824777163938395,0.0039593964953712635,1197.8635366390986
0.07,0.6703981797572851,0.06513570845852704,0.0805826397302349,0.16843654078224524,0.015446931271707822,1.0876453319378165,0.004614867003784486,1193.0692144427699
0.08,0.6642427430878306,0.06822308522317395,0.0844177146112443,0.16692182768968084,0.016194629388070297,1.0922011226717874,0.005269845114901359,1188.8351683657238
0.09,0.6587841747209973,0.07096044232488617,0.08781922869264577,0.16557736789371133,0.016858786367759546,1.0962739310616922,0.005924414506559719,1185.0441456032345
0.09999999999999999,0.6538854238492269,0.07341666456180916,0.09087238948620494,0.16436979717836334,0.01745572492439571,1.0999555930710847,0.006578638618084677,1181.6124404652314
0.10999999999999999,0.6494460428038147,0.07564223112241854,0.09363965759220846,0.16327464201176847,0.017997426469789867,1.1033139395126772,0.007232566931756162,1178.4781403387835
0.11999999999999998,0.6453902208859795,0.07767523455020132,0.09616818070477394,0.16227341770447273,0.01849294615457255,1.1064005256860308,0.007886238933292542,1175.594127960079
0.12999999999999998,0.6416593439929371,0.07954512270560966,0.09849441662681654,0.16135182275342996,0.01894929392120681,1.1092554704523043,0.00853968672661367,1172.9236950424536
0.13999999999999999,0.6382071675206203,0.08127512612364841,0.10064713294466393,0.1604985665900518,0.019372006821015458,1.1119106155453786,0.00919293682575523,1170.437675221888
0.15,0.6349965722154312,0.08288388917113473,0.1026494232667926,0.15970458125098372,0.019765534095657813,1.114391661328715,0.009846011421403596,1168.1125038053715
0.16,0.631997317913192,0.08438659933931864,0.10452010343436159,0.1589624752180848,0.020133504095042908,1.116719653713298,0.010498929299697793,1165.9288656246263
0.17,0.6291844479888704,0.08579578931165538,0.10627470337434271,0.1582661452624442,0.02047891406268728,1.1189120457657316,0.011151706523770491,1163.8707287552409
0.18000000000000002,0.6265371306434323,0.0871219193802072,0.10792618747045041,0.15761049441566677,0.02080426809024316,1.120983472392734,0.01180435694912643,1161.9246387810294
0.19000000000000003,0.624037800954287,0.088373808645847,0.10948548799983239,0.1569912230460482,0.02111167935398536,1.1229463265611679,0.012456892619987813,1160.0791934280128
0.20000000000000004,0.6216715146468109,0.08955895978011223,0.11096190696634589,0.15640467142049722,0.021402947186233635,1.1248111951960473,0.013109324078660629,1158.32464482765
0.21000000000000005,0.6194254538614029,0.09068380738098947,0.11236342344700934,0.15584769924457834,0.021679616066019834,1.126587193920462,0.013761660610220081,1156.6525938569953
0.22000000000000006,0.6172885439665553,0.09175391051190608,0.11369693190192336,0.15531759222959815,0.02194302139001725,1.1282822275972768,0.014413910438339863,1155.0557520643413
0.23000000000000007,0.6152511527861838,0.09277410381875181,0.1149684292438305,0.1548119887261553,0.022194325425078657,1.1299031955951593,0.015066080883697966,1153.5277539784581
0.24000000000000007,0.6133048518661205,0.09374861746789158,0.11618316333248485,0.15432882146890983,0.02243454586459324,1.131456155294076,0.015718178493352067,1152.0630075071344
0.25000000000000006,0.6114422250474507,0.09468117331086265,0.11734575205210829,0.1538662708483328,0.022664578741245594,1.1329464536367755,0.01637020914733577,1150.656573498735
0.26000000000000006,0.6096567135390487,0.09557506270821169,0.11846027969092422,0.15342272707910265,0.0228852169827125,1.134378833944533,0.017022178147193423,1149.3040678924178
0.2700000000000001,0.6079424894552914,0.09643321005050005,0.11953037561776057,0.15299675930918746,0.023097165567260478,1.1357575233803496,0.01767409029005674,1148.0015815512118
0.2800000000000001,0.6062943517739118,0.09725822501461617,0.12055927901433995,0.15258709019740838,0.02330105399972373,1.1370863051226672,0.018325949931045672,1146.7456140731367
0.2900000000000001,0.6047076401145202,0.09805244586687964,0.12154989252325003,0.1521925748389797,0.023497446656370356,1.1383685783503257,0.018977761036163974,1145.5330187515176
0.3000000000000001,0.6031781628019586,0.0988179755897764,0.12250482701033122,0.151812183177379,0.023686851420554843,1.1396074084293248,0.019629527227398295,1144.3609565024078
0.3100000000000001,0.6017021364702768,0.09955671221127962,0.1234264391480544,0.1514449852336144,0.023869726936774797,1.1408055691619243,0.020281251821377966,1143.2268570599979
0.3200000000000001,0.600276135058542,0.10027037441645485,0.12431686315625366,0.1510901386289505,0.024046488739798814,1.1419655785588514,0.020932937862681876,1142.1283861053146
0.3300000000000001,0.5988970465019712,0.1009605232937446,0.12517803775535505,0.1507468779873186,0.02421751446161044,1.143089729290938,0.021584588152668765,1141.0634172712003
0.34000000000000014,0.5975620357685927,0.10162858089408977,0.12601172917164682,0.15041450588811367,0.024383148277557026,1.144180114742516,0.02223620527454259,1140.0300081800726
0.35000000000000014,0.5962685131597213,0.10227584614633224,0.126819550867433,0.15009238510541278,0.02454370472110071,1.1452386514075252,0.022887791615234753,1139.0263798365359
0.36000000000000015,0.5950141070014741,0.10290350856734895,0.12760298053897107,0.1497799319205838,0.024699471971622054,1.146267098227597,0.023539349384581756,1138.0508988263293
0.37000000000000016,0.593796640018642,0.10351266012292,0.12836337482304738,0.14947661033526327,0.02485071470012734,1.147267073359826,0.02419088063219409,1137.1020618750056
0.38000000000000017,0.5926141088120123,0.10410430553012555,0.12910198207232754,0.14918192704333263,0.02499767654220194,1.148240068773526,0.02484238726234563,1136.1784824005583
0.3900000000000002,0.591464665963566,0.10467937124015252,0.12981995349535197,0.14889542704573033,0.025140582255199367,1.1491874630047112,0.02549387104715873,1135.2788787587247
0.4000000000000002,0.5903466043767647,0.10523871329879578,0.13051835290554936,0.1486166898121367,0.025279639606753508,1.1501105323403906,0.026145333638316268,1134.402063931521
0.4100000000000002,0.5892583435258808,0.10578312424841407,0.1311981652821313,0.14834532590985663,0.025415041033717167,1.1510104606590001,0.02679677657749565,1133.54693645144
0.4200000000000002,0.5881984173424092,0.10631333920792588,0.13186030431208118,0.14808097403342863,0.02554696510415524,1.1518883481161324,0.027448201305690176,1132.7124723877614
0.4300000000000002,0.5871654635106923,0.10683004124528543,0.13250561905502767,0.1478232983792524,0.025675577809742164,1.1527452188343703,0.028099609171558435,1131.897718249231
0.4400000000000002,0.5861582139809963,0.10733386613874069,0.13313489985032878,0.14757198631834637,0.025801033711588015,1.1535820277311208,0.028751001438921907,1131.1017846801717
0.45000000000000023,0.5851754865379931,0.10782540660824556,0.13374888356720152,0.14732674632760392,0.025923476958955874,1.1543996665978054,0.029402379293513886,1130.3238408459208
0.46000000000000024,0.5842161772871888,0.10830521608605614,0.1343482582834437,0.14708730614592389,0.0260430421973875,1.1551989695267466,0.03005374384906835,1129.5631094190826
0.47000000000000025,0.5832792539422386,0.10877381208528678,0.1349336674655932,0.14685341112657513,0.02615985538030637,1.1559807177679355,0.03070509615282539,1128.818862091073
0.48000000000000026,0.5823637498131208,0.10923167921665473,0.1355057137127803,0.14662482276131858,0.0262740344961255,1.1567456440860258,0.03135643719051949,1128.0904155442772
0.49000000000000027,0.5814687584093918,0.10967927189648143,0.1360649621176584,0.14640131735529163,0.0263856902211769,1.1574944366779898,0.03200776789090833,1127.3771278292527
0.5000000000000002,0.5805934285847247,0.11011701678300126,0.1366119432903424,0.14618268483459063,0.026494926507341098,1.1582277427035124,0.0326590891298923,1126.6783950990712
0.5100000000000002,0.5797369601590494,0.11054531497295383,0.13714715608499567,0.14596872767095925,0.026601841112041797,1.1589461714731328,0.033310401734268566,1125.9936486593824
0.5200000000000002,0.5788985999631622,0.11096454398613541,0.13767107006337778,0.1457592599100823,0.026706526077242335,1.1596502973331706,0.03396170648515823,1125.3223522982735
0.5300000000000002,0.5780776382579482,0.11137505956193647,0.13818412772514385,0.14555410629176405,0.02680906816320737,1.160340662281365,0.03461300412114029,1124.6639998646842
0.5400000000000003,0.5772734054865569,0.11177719728878006,0.13868674653082863,0.14535310145178593,0.026909549242048567,1.1610177783428144,0.035264295341122215,1124.018113068129
0.5500000000000003,0.576485269323162,0.11217127408471611,0.13917932074015218,0.1451560891965337,0.027008046655436074,1.1616821297320836,0.03591558080697332,1123.384239475902
0.5600000000000003,0.5757126319864877,0.11255758954514607,0.1396622230854576,0.14496292184259713,0.027104633540311545,1.1623341748241391,0.03656686114594423,1122.7619506868773
0.5700000000000003,0.5749549277901809,0.11293642717169113,0.1401358062976595,0.1447734596144998,0.02719937912596845,1.1629743479540322,0.03721813695289307,1122.150840663554
0.5800000000000003,0.5742116209054838,0.11330805549452651,0.1406004044999868,0.14458757009454248,0.02729234900546036,1.1636030610628598,0.037869408792336634,1121.5505242061754
0.5900000000000003,0.5734822033145672,0.11367272909904151,0.1410563344829886,0.1444051277194553,0.027383605383947168,1.1642207052054845,0.03852067720034288,1120.9606355546548
0.6000000000000003,0.5727661929354175,0.11403068956641885,0.14150389687270434,0.14422601331917376,0.02747320730628559,1.164827651933699,0.0391719426862793,1120.3808271056769
0.6100000000000003,0.5720631319013534,0.11438216633662339,0.14194337720252892,0.14405011369358883,0.027561210865905607,1.1654242545669746,0.0398232057344302,1119.8107682337813
0.6200000000000003,0.5713725849801716,0.11472737750133347,0.1423750468981184,0.14387732122359145,0.027647669396785014,1.1660108493615666,0.04047446680549449,1119.250144206481
0.6300000000000003,0.570694138119579,0.1150665305335083,0.1427991641836407,0.14370753351313953,0.027732633650132503,1.1665877565875726,0.0411257263379745,1118.6986551845623
0.6400000000000003,0.570027397107034,0.11539982295955252,0.14321597491676658,0.1435406530594327,0.027816151957214128,1.1671552815224964,0.041776984749465174,1118.1560152996676
0.6500000000000004,0.5693719863334012,0.11572744297939752,0.14362571335900118,0.14337658694859617,0.027898270379603747,1.1677137153689547,0.042428242437852176,1117.6219518021078
0.6600000000000004,0.5687275476509459,0.11604957003925143,0.14402860288725322,0.14321524657454768,0.02797903284800186,1.1682633361033685,0.04307949978242642,1117.0962042725864
0.6700000000000004,0.5680937393171861,0.11636637536127506,0.14442485665192323,0.14305654737896728,0.028058481290648207,1.1688044092617653,0.043730757144922056,1116.5785238921733
0.6800000000000004,0.5674702350170006,0.11667802243400059,0.14481467818624838,0.14290040861050265,0.02813665575224783,1.1693371886681962,0.04438201487048406,1116.068672765441
0.6900000000000004,0.5668567229561517,0.11698466746692147,0.1451982619711583,0.14274675310153165,0.028213594504236866,1.1698619171107234,0.045033273288571075,1115.5664232921886
0.7000000000000004,0.5662529050200823,0.11728645981233998,0.14557579395947198,0.14259550706097374,0.028289334147132052,1.1703788269694293,0.04568453271379872,1115.071557583629
0.7100000000000004,0.5656584959924388,0.11758354235725203,0.1459474520628862,0.1424465998817887,0.028363909705634207,1.170888140800479,0.04633579344672789,1114.583866919321
0.7200000000000004,0.5650732228283242,0.11787605188777936,0.14631340660487044,0.14229996396193503,0.028437354717091096,1.1713900718798662,0.04698705577460237,1114.1031512414804
0.7300000000000004,0.5644968239777565,0.11816411942841663,0.14667382074228327,0.14215553453767685,0.028509701313866678,1.1718848247101357,0.047638319972039614,1113.6292186836301
0.7400000000000004,0.5639290487552446,0.11844787055814736,0.14702885085825973,0.14201324952823588,0.02858098030011238,1.1723725954930588,0.048289586301678206,1113.1618851308294
0.7500000000000004,0.5633696567517691,0.1187274257052885,0.14737864692867775,0.14187304939087542,0.028651221223389256,1.172853572570975,0.048940855014785185,1112.7009738089787
0.7600000000000005,0.5628184172858043,0.11900290042275348,0.14772335286430244,0.14173487698559076,0.02872045244154896,1.1733279368392469,0.0495921263518262,1112.2463149009257
0.7700000000000005,0.5622751088903224,0.11927440564526785,0.14806310683051194,0.14159867744865376,0.028788701185244077,1.1737958621320728,0.05024340054300118,1111.797745187303
0.7800000000000005,0.5617395188329934,0.11954204792993463,0.14839804154633973,0.14146439807432723,0.028855993616405073,1.1742575155836885,0.050894677808747985,1111.3551077102113
0.7900000000000005,0.5612114426670478,0.11980592968142162,0.14872828456441303,0.14133198820412624,0.028922354882991413,1.17471305796682,0.05154595836021632,1110.9182514580264
0.8000000000000005,0.5606906838104859,0.12006614936293127,0.1490539585332284,0.14120139912305746,0.028987809170297116,1.175162644010076,0.052197242399713906,1110.487031069761
0.8100000000000005,0.5601770531515221,0.12032280169401333,0.14937518144308043,0.14107258396231703,0.02905237974906713,1.1756064226958414,0.05284853012112697,1110.0613065575437
0.8200000000000005,0.5596703686783324,0.1205759778361891,0.14969206685684766,0.1409454976079721,0.02911608902065859,1.1760445375400796,0.05349982171031662,1109.6409430458993
0.8300000000000005,0.5591704551313361,0.1208257655672747,0.15000472412673635,0.14082009661519135,0.02917895855946168,1.1764771268553518,0.05415111734549292,1109.225810526628
0.8400000000000005,0.5586771436763905,0.12107224944521566,0.150313258597992,0.1406963391276255,0.029241009152776363,1.1769043239982424,0.054802417197567954,1108.815783628175
0.8500000000000005,0.5581902715974165,0.12131551096217925,0.15061777180050498,0.1405741848015735,0.029302260838325753,1.177326257602283,0.05545372143048949,1108.4107413984777
0.8600000000000005,0.5577096820070839,0.1215556286895882,0.1509183616291595,0.14045359473459704,0.02936273293957132,1.1777430517973881,0.05610503020155628,1108.010567100356
0.8700000000000006,0.5572352235743073,0.12179267841472585,0.15121512251370836,0.1403345313982761,0.029422444098982502,1.1781548264167212,0.05675634366171635,1107.6151480185872
0.8800000000000006,0.5567667502673949,0.12202673326949127,0.15150814557889206,0.14021695857482108,0.02948141230940077,1.1785616971918487,0.057407661955849294,1107.2243752778759
0.8900000000000006,0.5563041211117897,0.12225786385183783,0.1517975187954651,0.14010084129727995,0.02953965494362725,1.178963775936964,0.05805898522303357,1106.8381436709874
0.9000000000000006,0.5558471999614213,0.12248613834038673,0.15208332712273964,0.1399861457930994,0.029597188782352898,1.1793611707229095,0.05871031359679978,1106.4563514963736
0.9100000000000006,0.5553958552827633,0.12271162260266864,0.1523656526432097,0.13987283943081724,0.029654030040541034,1.1797539860416666,0.05936164720537077,1106.0789004046683
0.9200000000000006,0.5549499599507649,0.1229343802974132,0.15264457468977707,0.139760890669681,0.02971019439236384,1.180142322961929,0.06001298617188936,1105.7056952534795
0.9300000000000006,0.5545093910558805,0.12315447297127226,0.1529201699660587,0.1396502690120021,0.029765696994786407,1.180526279276336,0.060664330614634464,1105.3366439699448
0.9400000000000006,0.5540740297214859,0.1233719601503364,0.15319251266022177,0.13954094495807057,0.029820552509885325,1.1809059496408936,0.06131568064722628,1104.9716574205581
0.9500000000000006,0.5536437609310189,0.1235868994267751,0.15346167455275717,0.13943288996346678,0.029874775125982026,1.1812814257070758,0.061967036378821234,1104.6106492878125
0.9600000000000006,0.5532184733642312,0.1237993465409089,0.1537277251185744,0.13932607639861988,0.029928378577665483,1.1816527962470629,0.06261839791429724,1104.2535359532344
0.9700000000000006,0.5527980592419851,0.12400935545899776,0.1539907316237711,0.13922047751047273,0.02998137616477333,1.1820201472725347,0.06326976535442985,1103.9002363864174
0.9800000000000006,0.5523824141790641,0.12421697844701059,0.15425075921740614,0.1391160673861235,0.0300337807703955,1.1823835621474201,0.06392113879605985,1103.5506720396897
0.9900000000000007,0.5519714370445125,0.12442226614062181,0.15450787101858196,0.1390128209183238,0.030085604877960127,1.1827431216949589,0.06457251833225272,1103.204766748076
1.0000000000000007,0.551565029829042,0.12462526761166232,0.1547621281991192,0.1389107137727196,0.03013686058745683,1.1830989042994244,0.06522390405245057,1102.862446634238
1.0100000000000007,0.5511630975190894,0.1248260304312393,0.15501359006208873,0.13880972235673314,0.03018755963084939,1.1834509860028144,0.06587529604261674,1102.5236400181004
1.0200000000000007,0.5507655479771232,0.12502460072972016,0.15526231411644545,0.13870982378998595,0.030237713386725228,1.1837994405968146,0.06652669438537369,1102.1882773308866
1.0300000000000007,0.5503722918278372,0.1252210232537672,0.15550835614799427,0.13861099587617443,0.030287332894227012,1.1841443397103006,0.06717809916013445,1101.8562910333096
1.0400000000000007,0.5499832423498858,0.12541534142059316,0.1557517702869008,0.1385132170763125,0.030336428866307587,1.1844857528926411,0.06782951044322798,1101.5276155376803
1.0500000000000007,0.5495983153728434,0.125607597369599,0.15599260907194662,0.13841646648326342,0.030385011702347565,1.1848237476930386,0.06848092830801877,1101.202187133709
1.0600000000000007,0.5492174291790859,0.1257978320115426,0.1562309235117141,0.13832072379748603,0.03043309150017146,1.1851583897361315,0.06913235282502107,1100.8799439177933
1.0700000000000007,0.5488405044103203,0.12598608507537887,0.15646676314287575,0.13822596930392836,0.030480678067496818,1.1854897427940678,0.0697837840620079,1100.5608257255976
1.0800000000000007,0.5484674639784985,0.12617239515290163,0.1567001760857493,0.13813218385000284,0.030527780932847602,1.1858178688552445,0.07043522208411519,1100.2447740677421
1.0900000000000007,0.5480982329808735,0.1263567997413093,0.1569312090972712,0.13803934882458427,0.030574409355961823,1.1861428281898971,0.07108666695394138,1099.9317320684315
1.1000000000000008,0.5477327386189668,0.12653933528380887,0.15715990762153,0.13794744613797327,0.030620572337721044,1.1864646794127096,0.0717381187316425,1099.6216444068623
1.1100000000000008,0.5473709101212394,0.12672003720836547,0.1573863158379935,0.1378564582027737,0.03066627862962794,1.1867834795426053,0.07238957747502324,1099.3144572612619
1.1200000000000008,0.5470126786692593,0.1268989399646974,0.15761047670755357,0.13776636791563354,0.03071153674285608,1.1870992840598718,0.07304104323962397,1099.010118255416
1.1300000000000008,0.5466579773271832,0.12707607705961124,0.1578324320165064,0.13767715863980404,0.030756354956895066,1.187412146960757,0.0736925160788041,1098.708576407556
1.1400000000000008,0.546306740974373,0.12725148109076484,0.1580522224185772,0.13758881418847269,0.030800741327812256,1.1877221208096742,0.07434399604382179,1098.4097820814786
